id,x,y,yaw
0,-534,283.961,2.45382
1,-533.972,283.987,2.45332
2,-533.993,284.028,2.45351
3,-534,284.08,2.45184
4,-534.099,284.186,2.45121
5,-534.223,284.222,2.45241
6,-534.384,284.334,2.45088
7,-534.559,284.621,2.45101
8,-534.785,284.824,2.44759
9,-534.834,284.975,2.44666
10,-535.294,285.488,2.45222
11,-535.456,285.712,2.44708
12,-536.059,286.116,2.44966
13,-536.459,286.546,2.45217
14,-536.954,286.908,2.45323
15,-537.445,287.3,2.45539
16,-537.909,287.746,2.45991
17,-538.416,288.197,2.46395
18,-538.872,288.68,2.46416
19,-539.448,289.002,2.46851
20,-539.907,289.419,2.46614
21,-540.425,289.96,2.46745
22,-540.978,290.471,2.46722
23,-541.66,290.846,2.4682
24,-542.186,291.504,2.4693
25,-542.721,291.945,2.46722
26,-543.564,292.388,2.46667
27,-544.357,292.982,2.47103
28,-545.307,293.746,2.4774
29,-546.181,294.417,2.49006
30,-547.192,294.984,2.51428
31,-548.226,295.599,2.53368
32,-549.146,296.195,2.56611
33,-550.16,297.125,2.61395
34,-551.6,297.634,2.6732
35,-552.602,298.098,2.74404
36,-553.41,298.088,2.82231
37,-552.518,297.89,2.83956
38,-551.401,295.969,2.9029
39,-552.596,296.62,2.97922
40,-553.822,296.623,3.06441
41,-555.416,296.649,-3.13928
42,-557.151,296.693,-3.06789
43,-558.725,296.796,-3.02061
44,-560.477,296.707,-2.95898
45,-561.73,296.437,-2.90058
46,-562.805,295.402,-2.83112
47,-565.774,295.668,-2.80046
48,-569.886,295.277,-2.73427
49,-570.437,295.239,-2.73006
50,-575.704,293.55,-2.60019
51,-577.387,292.588,-2.57048
52,-579.126,291.492,-2.55055
53,-580.917,290.336,-2.51739
54,-582.099,289.577,-2.49922
55,-584.426,287.372,-2.46597
56,-585.828,286.469,-2.44998
57,-587.279,285.193,-2.44538
58,-589.546,283.601,-2.44425
59,-591.149,282.048,-2.44558
60,-593.008,280.511,-2.44978
61,-595.059,278.843,-2.44926
62,-597.062,276.852,-2.46328
63,-598.789,275.26,-2.47941
64,-600.921,273.29,-2.49182
65,-603.385,272.255,-2.49731
66,-605.621,270.83,-2.50664
67,-607.936,269.043,-2.52709
68,-610.144,267.552,-2.54473
69,-612.735,266.078,-2.55271
70,-615.23,264.543,-2.56832
71,-617.635,263.229,-2.58808
72,-620.294,261.695,-2.61032
73,-623.359,260.254,-2.62585
74,-626.009,258.883,-2.6517
75,-628.766,257.54,-2.66931
76,-631.07,256.405,-2.68809
77,-633.948,255.137,-2.70596
78,-636.789,254.009,-2.72483
79,-639.243,252.948,-2.74401
80,-642.165,251.762,-2.77165
81,-644.791,251.03,-2.77864
82,-647.792,250.064,-2.79234
83,-650.817,248.841,-2.8098
84,-653.606,247.863,-2.82549
85,-656.592,246.952,-2.83912
86,-659.584,246.39,-2.83911
87,-662.667,245.651,-2.85106
88,-665.506,244.788,-2.86037
89,-668.462,244.206,-2.86281
90,-671.366,243.227,-2.86066
91,-673.917,242.509,-2.86629
92,-676.985,241.943,-2.86952
93,-680.001,241.144,-2.86827
94,-682.947,240.38,-2.87556
95,-685.886,239.632,-2.87971
96,-688.857,238.972,-2.87984
97,-691.942,238.242,-2.87756
98,-695.065,237.6,-2.88479
99,-697.926,236.453,-2.87869
100,-700.686,235.36,-2.87494
101,-703.497,234.583,-2.87397
102,-706.639,233.948,-2.87593
103,-709.629,233.065,-2.87291
104,-712.382,232.164,-2.87483
105,-715.469,231.298,-2.87409
106,-718.258,230.587,-2.87836
107,-721.198,229.739,-2.87164
108,-724.215,229.006,-2.86947
109,-727.126,227.984,-2.8686
110,-729.996,227.147,-2.86984
111,-732.909,226.511,-2.8673
112,-735.994,225.745,-2.86886
113,-738.895,225.062,-2.87671
114,-741.915,224.365,-2.87832
115,-744.775,223.541,-2.87855
116,-747.696,222.879,-2.88051
117,-750.463,222.169,-2.87824
118,-753.634,221.395,-2.88014
119,-756.185,220.811,-2.87939
120,-758.907,219.982,-2.87219
121,-761.862,219.109,-2.87204
122,-764.908,218.303,-2.867
123,-767.523,217.602,-2.87152
124,-770.245,217.095,-2.86725
125,-773.073,216.297,-2.86887
126,-775.075,215.668,-2.87259
127,-777.788,215.213,-2.8712
128,-779.938,214.411,-2.86897
129,-782.269,213.809,-2.86953
130,-784.466,213.375,-2.87183
131,-786.635,212.831,-2.87418
132,-788.711,212.326,-2.8712
133,-790.329,211.731,-2.87193
134,-792.365,210.99,-2.86846
135,-793.796,210.626,-2.87427
136,-795.253,210.195,-2.87293
137,-796.885,209.775,-2.87284
138,-798.132,209.658,-2.87038
139,-799.418,209.289,-2.86937
140,-800.291,209.145,-2.87086
141,-801.336,208.804,-2.87745
142,-802.303,208.46,-2.87183
143,-803.053,208.267,-2.87168
144,-803.595,208.236,-2.87263
145,-804.052,208.202,-2.87237
146,-804.438,208.169,-2.87374
147,-804.597,208.081,-2.87311
148,-804.703,208.123,-2.87312
149,-804.635,208.13,-2.87344
150,-804.574,208.126,-2.87319
151,-804.591,208.182,-2.87379
152,-804.661,208.163,-2.87352
153,-804.719,208.142,-2.87301
154,-804.648,208.178,-2.87348
155,-804.647,208.174,-2.8731
156,-804.637,208.168,-2.87313
157,-804.612,208.169,-2.8738
158,-804.639,208.181,-2.87356
159,-804.637,208.181,-2.87362
160,-804.634,208.157,-2.8732
161,-804.608,208.143,-2.87301
162,-804.639,208.182,-2.87277
163,-804.523,208.195,-2.873
164,-804.583,208.185,-2.87288
165,-804.589,208.144,-2.87312
166,-804.647,208.233,-2.87276
167,-804.599,208.232,-2.8729
168,-804.571,208.285,-2.87348
169,-804.603,208.307,-2.87649
170,-804.67,208.276,-2.87445
171,-804.632,208.259,-2.87389
172,-804.68,208.126,-2.87219
173,-804.896,208.047,-2.8736
174,-805.19,207.8,-2.87621
175,-805.657,207.664,-2.88036
176,-806.268,207.473,-2.87835
177,-807.173,207.324,-2.88164
178,-807.858,207.237,-2.88165
179,-808.902,206.913,-2.87767
180,-810.05,206.806,-2.87861
181,-811.112,206.602,-2.87729
182,-812.274,206.166,-2.87451
183,-813.774,206.088,-2.87203
184,-815.028,205.684,-2.86805
185,-816.465,204.934,-2.86897
186,-818.458,204.67,-2.87076
187,-820.455,204.203,-2.86849
188,-822.042,203.626,-2.87068
189,-823.734,202.981,-2.87759
190,-825.46,202.643,-2.88213
191,-827.458,201.969,-2.88904
192,-829.33,201.73,-2.89779
193,-831.268,201.082,-2.90903
194,-833.221,200.672,-2.92196
195,-835.355,200.194,-2.92678
196,-837.245,199.777,-2.93269
197,-839.159,199.332,-2.9467
198,-841.275,199.132,-2.95229
199,-843.473,198.571,-2.96615
200,-845.766,198.054,-2.97757
201,-847.508,197.785,-2.99799
202,-849.773,197.739,-3.00787
203,-852.116,197.498,-3.02492
204,-854.291,197.295,-3.04088
205,-856.709,197.275,-3.05028
206,-859.185,197.065,-3.06878
207,-861.84,196.996,-3.09304
208,-864.343,197.173,-3.1096
209,-866.824,197.11,-3.13694
210,-869.98,197.074,3.1262
211,-872.058,197.324,3.09928
212,-874.522,197.709,3.07968
213,-877.253,197.922,3.06262
214,-880.055,198.184,3.04533
215,-882.743,198.688,3.03385
216,-885.664,199.157,3.02536
217,-888.555,199.434,3.01556
218,-891.324,199.831,3.01131
219,-894.482,200.375,3.0008
220,-897.42,200.633,2.99863
221,-900.349,201.016,2.99861
222,-903.115,201.501,2.99416
223,-905.559,201.83,2.99395
224,-908.903,202.385,2.99392
225,-911.482,202.798,2.99454
226,-914.776,203.419,2.99639
227,-917.626,203.897,2.99811
228,-920.237,204.289,2.99713
229,-922.944,204.77,2.99429
230,-925.782,205.181,2.99334
231,-928.907,205.823,2.99591
232,-931.823,206.265,2.99695
233,-934.712,206.746,2.99808
234,-937.652,207.236,2.99882
235,-940.143,207.576,3.00305
236,-943.082,208.064,3.00809
237,-946.128,208.488,3.01032
238,-948.933,208.94,3.00916
239,-951.449,209.4,3.0101
240,-954.128,209.693,3.00922
241,-956.6,209.93,3.01122
242,-958.72,210.379,3.01217
243,-961.625,210.675,3.0058
244,-964.361,211.25,3.00451
245,-967.424,211.695,2.99655
246,-970.182,212.198,3.00005
247,-973.099,212.42,3.00185
248,-974.618,212.499,3.00448
249,-973.661,212.602,2.98772
250,-974.448,212.579,2.98964
251,-977.062,212.888,2.98882
252,-980.011,213.285,2.98861
253,-982.568,213.769,2.98976
254,-992.872,216.007,2.9949
255,-995.645,216.544,3.00108
256,-998.62,216.938,2.99957
257,-1000.04,216.997,2.99976
258,-1003.83,218.121,2.99553
259,-1006.09,218.426,2.98678
